# Mean squared displacement computed by LiquidLib
# t                 <r2(t)>
0.000000000000000e+00        0.000000000000000e+00
1.000000047497451e-03        3.337486386299133e-01
2.000000094994903e-03        5.139622688293457e-01
3.000000026077032e-03        6.790075898170471e-01
4.000000189989805e-03        8.372285366058350e-01
5.000000353902578e-03        9.935207366943359e-01
6.000000052154064e-03        1.148171067237854e+00
7.000000216066837e-03        1.303458213806152e+00
8.000000379979610e-03        1.459551334381104e+00
9.000000543892384e-03        1.615967035293579e+00
1.000000070780516e-02        1.772115111351013e+00
1.100000087171793e-02        1.928306937217712e+00
1.200000010430813e-02        2.084159374237061e+00
1.300000026822090e-02        2.239714622497559e+00
1.400000043213367e-02        2.396123647689819e+00
1.500000059604645e-02        2.552524805068970e+00
1.600000075995922e-02        2.709297418594360e+00
1.700000092387199e-02        2.866144180297852e+00
1.800000108778477e-02        3.023529529571533e+00
1.900000125169754e-02        3.180193424224854e+00
2.000000141561031e-02        3.336196422576904e+00
2.100000157952309e-02        3.491860151290894e+00
2.200000174343586e-02        3.648115158081055e+00
2.300000190734863e-02        3.803921699523926e+00
2.400000020861626e-02        3.959600925445557e+00
2.500000037252903e-02        4.115069866180420e+00
2.600000053644180e-02        4.270745754241943e+00
2.700000070035458e-02        4.426167964935303e+00
2.800000086426735e-02        4.581294059753418e+00
2.900000102818012e-02        4.737075328826904e+00
3.000000119209290e-02        4.893300533294678e+00
3.100000135600567e-02        5.049502372741699e+00
3.200000151991844e-02        5.205340862274170e+00
3.299999982118607e-02        5.361072063446045e+00
3.400000184774399e-02        5.516703128814697e+00
3.500000014901161e-02        5.672977447509766e+00
3.600000217556953e-02        5.829372406005859e+00
