# Mean squared displacement computed by LiquidLib
# t                 <r2(t)>
0.000000000000000e+00        0.000000000000000e+00
1.000000047497451e-03        3.325566351413727e-01
2.000000094994903e-03        5.477560758590698e-01
3.000000026077032e-03        7.492474913597107e-01
4.000000189989805e-03        9.463579654693604e-01
5.000000353902578e-03        1.140254735946655e+00
6.000000052154064e-03        1.333485245704651e+00
7.000000216066837e-03        1.526441574096680e+00
8.000000379979610e-03        1.718771219253540e+00
9.000000543892384e-03        1.911559939384460e+00
1.000000070780516e-02        2.104448795318604e+00
1.100000087171793e-02        2.296785116195679e+00
1.200000010430813e-02        2.489185810089111e+00
1.300000026822090e-02        2.681033849716187e+00
1.400000043213367e-02        2.872888803482056e+00
1.500000059604645e-02        3.064952135086060e+00
1.600000075995922e-02        3.256177425384521e+00
1.700000092387199e-02        3.448183059692383e+00
1.800000108778477e-02        3.640249729156494e+00
1.900000125169754e-02        3.832154035568237e+00
2.000000141561031e-02        4.024384498596191e+00
2.100000157952309e-02        4.216317653656006e+00
2.200000174343586e-02        4.408180713653564e+00
2.300000190734863e-02        4.599736690521240e+00
2.400000020861626e-02        4.790971755981445e+00
2.500000037252903e-02        4.982001304626465e+00
2.600000053644180e-02        5.173069477081299e+00
2.700000070035458e-02        5.364305973052979e+00
2.800000086426735e-02        5.556180000305176e+00
2.900000102818012e-02        5.748109340667725e+00
3.000000119209290e-02        5.940162181854248e+00
3.100000135600567e-02        6.132582187652588e+00
3.200000151991844e-02        6.324691295623779e+00
3.299999982118607e-02        6.516003608703613e+00
3.400000184774399e-02        6.707034587860107e+00
3.500000014901161e-02        6.898466110229492e+00
3.600000217556953e-02        7.089101314544678e+00
