# Mean squared displacement computed by LiquidLib
# t                 <r2(t)>
0.000000000000000e+00        0.000000000000000e+00
1.000000047497451e-03        3.319921195507050e-01
2.000000094994903e-03        5.426754355430603e-01
3.000000026077032e-03        7.381381392478943e-01
4.000000189989805e-03        9.265444278717041e-01
5.000000353902578e-03        1.112646222114563e+00
6.000000052154064e-03        1.297123551368713e+00
7.000000216066837e-03        1.480578660964966e+00
8.000000379979610e-03        1.663084864616394e+00
9.000000543892384e-03        1.846273064613342e+00
1.000000070780516e-02        2.029445409774780e+00
1.100000087171793e-02        2.213064670562744e+00
1.200000010430813e-02        2.397856712341309e+00
1.300000026822090e-02        2.581733942031860e+00
1.400000043213367e-02        2.765575408935547e+00
1.500000059604645e-02        2.948476791381836e+00
1.600000075995922e-02        3.132140159606934e+00
1.700000092387199e-02        3.315771341323853e+00
1.800000108778477e-02        3.499711275100708e+00
1.900000125169754e-02        3.682574510574341e+00
2.000000141561031e-02        3.864951372146606e+00
2.100000157952309e-02        4.047024726867676e+00
2.200000174343586e-02        4.229524612426758e+00
2.300000190734863e-02        4.412179470062256e+00
2.400000020861626e-02        4.595099925994873e+00
2.500000037252903e-02        4.777511119842529e+00
2.600000053644180e-02        4.960144042968750e+00
2.700000070035458e-02        5.143006801605225e+00
2.800000086426735e-02        5.325533390045166e+00
2.900000102818012e-02        5.507480621337891e+00
3.000000119209290e-02        5.688976764678955e+00
3.100000135600567e-02        5.871117591857910e+00
3.200000151991844e-02        6.053246498107910e+00
3.299999982118607e-02        6.235770702362061e+00
3.400000184774399e-02        6.418568134307861e+00
3.500000014901161e-02        6.602392673492432e+00
3.600000217556953e-02        6.786189556121826e+00
